q-Value [nm^-1], Intensity [nm^-1]
0.1, 0.5716761798901022
0.10232929922807542, 0.5716548644681239
0.10471285480508996, 0.5716325281470885
0.10715193052376065, 0.5716091212361718
0.1096478196143185, 0.5715845915503809
0.11220184543019636, 0.5715588842780952
0.1148153621496883, 0.5715319418413273
0.11748975549395294, 0.5715037037475105
0.12022644346174127, 0.5714741064326636
0.12302687708123815, 0.5714430830954246
0.12589254117941673, 0.5714105635210477
0.1288249551693134, 0.5713764738949141
0.1318256738556407, 0.5713407366046753
0.13489628825916536, 0.5713032700304856
0.1380384264602885, 0.5712639883222602
0.14125375446227545, 0.5712228011632047
0.14454397707459277, 0.571179613518569
0.14791083881682077, 0.5711343253686593
0.15135612484362082, 0.5710868314248033
0.1548816618912481, 0.5710370208274549
0.15848931924611134, 0.5709847768245186
0.16218100973589297, 0.5709299764290507
0.16595869074375605, 0.5708724900544443
0.16982436524617442, 0.5708121811255668
0.17378008287493754, 0.5707489056639707
0.1778279410038923, 0.5706825118453197
0.18197008586099836, 0.5706128395268872
0.18620871366628675, 0.5705397197426711
0.19054607179632474, 0.570462974163944
0.19498445997580455, 0.5703824145222225
0.19952623149688797, 0.5702978419919161
0.20417379446695297, 0.5702090465294172
0.20892961308540392, 0.5701158061651365
0.2137962089502232, 0.5700178862447797
0.21877616239495523, 0.5699150386156894
0.22387211385683395, 0.5698070007539519
0.2290867652767773, 0.5696934948272637
0.2344228815319922, 0.5695742266883941
0.23988329190194904, 0.5694488847934913
0.24547089156850305, 0.5693171390389893
0.251188643150958, 0.5691786395103268
0.2570395782768864, 0.5690330151350627
0.2630267991895382, 0.568879872232338
0.2691534803926916, 0.5687187929498989
0.2754228703338166, 0.5685493335791121
0.28183829312644537, 0.56837102273748
0.28840315031266056, 0.568183359407382
0.29512092266663853, 0.5679858108185188
0.3019951720402016, 0.5677778101606296
0.30902954325135906, 0.5675587541116708
0.31622776601683794, 0.567328000165411
0.32359365692962827, 0.5670848637409251
0.3311311214825911, 0.5668286150548302
0.33884415613920255, 0.566558475735515
0.3467368504525316, 0.5662736151565994
0.35481338923357547, 0.5659731464649649
0.36307805477010135, 0.5656561222764184
0.37153522909717257, 0.5653215300096903
0.3801893963205612, 0.5649682868269018
0.3890451449942806, 0.564595234145873
0.3981071705534972, 0.5642011316865864
0.40738027780411273, 0.5637846510109807
0.4168693834703354, 0.5633443685117342
0.42657951880159267, 0.5628787578020701
0.436515832240166, 0.5623861814546228
0.44668359215096315, 0.5618648820333247
0.457088189614875, 0.5613129723578395
0.4677351412871982, 0.5607284249355333
0.4786300923226383, 0.5601090604911613
0.4897788193684462, 0.559452535519627
0.5011872336272722, 0.5587563287821602
0.5128613839913648, 0.5580177266613241
0.5248074602497725, 0.5572338072854437
0.5370317963702527, 0.5564014233284209
0.5495408738576245, 0.5555171833868331
0.5623413251903491, 0.5545774318326737
0.5754399373371569, 0.5535782270376416
0.5888436553555889, 0.5525153178637031
0.6025595860743578, 0.5513841183153143
0.6165950018614822, 0.5501796802516679
0.6309573444801932, 0.5488966640634698
0.6456542290346555, 0.5475293072287686
0.660693448007596, 0.5460713906774456
0.6760829753919817, 0.5445162029153086
0.6918309709189365, 0.5428565018879342
0.7079457843841379, 0.5410844746033234
0.72443596007499, 0.539191694583204
0.7413102413009175, 0.5371690772782113
0.7585775750291838, 0.5350068336650767
0.7762471166286917, 0.5326944223481128
0.7943282347242815, 0.5302205006166715
0.8128305161640993, 0.5275728750696221
0.831763771102671, 0.5247384526124397
0.8511380382023764, 0.5217031928679401
0.8709635899560807, 0.5184520633241619
0.8912509381337456, 0.5149689988787209
0.9120108393559098, 0.5112368678343032
0.933254300796991, 0.5072374468604038
0.954992586021436, 0.5029514079662314
0.9772372209558107, 0.4983583211308034
1.0, 0.4934366769069615
1.023292992280754, 0.48816393404933706
1.0471285480508996, 0.4825165979974375
1.0715193052376064, 0.4764703368491207
1.096478196143185, 0.47000014224815734
1.1220184543019633, 0.4630805433265793
1.1481536214968828, 0.45568588241117897
1.1748975549395295, 0.4477906615220437
1.202264434617413, 0.43936996862993516
1.2302687708123816, 0.4303999920400011
1.2589254117941673, 0.4208586299461741
1.288249551693134, 0.41072619994720094
1.318256738556407, 0.3999862499177103
1.3489628825916535, 0.38862646688638686
1.3803842646028848, 0.3766396743350126
1.4125375446227544, 0.3640249005336033
1.4454397707459274, 0.3507884912482592
1.4791083881682074, 0.3369452296831457
1.5135612484362082, 0.32251941539115836
1.5488166189124815, 0.3075458429596975
1.5848931924611136, 0.29207061171766413
1.62181009735893, 0.2761516909672757
1.6595869074375607, 0.2598591629443887
1.6982436524617444, 0.2432750694664557
1.7378008287493754, 0.22649279937569286
1.7782794100389228, 0.20961597317355804
1.8197008586099834, 0.19275680851092566
1.8620871366628675, 0.17603398413224575
1.9054607179632472, 0.159570057909843
1.9498445997580451, 0.1434885330675194
1.9952623149688795, 0.1279107011716345
2.041737944669529, 0.11295241644117299
2.0892961308540396, 0.09872096951394523
2.137962089502232, 0.08531222749709105
2.1877616239495525, 0.07280819034071016
2.2387211385683394, 0.06127508285077633
2.290867652767773, 0.05076206048933742
2.344228815319922, 0.04130056035995738
2.3988329190194904, 0.03290428187262715
2.4547089156850306, 0.025569739646166195
2.51188643150958, 0.019277298309734334
2.5703957827688635, 0.01399257756185149
2.6302679918953817, 0.009668107032500695
2.6915348039269156, 0.006245113582574135
2.7542287033381663, 0.0036553369753129206
2.8183829312644537, 0.001822791051323872
2.884031503126606, 0.0006654141345261465
2.9512092266663856, 9.658202389584958e-5
3.019951720402016, 2.648747346178335e-5
3.0902954325135905, 0.0003634195918955033
3.1622776601683795, 0.0010150030673134575
3.2359365692962827, 0.0018894780143455477
3.311311214825911, 0.0028971131274309198
3.3884415613920256, 0.003951843180598854
3.4673685045253166, 0.004973201372025422
3.548133892335755, 0.0058885724336214754
3.630780547701014, 0.006635721039777204
3.715352290971725, 0.007165454568385073
3.8018939632056115, 0.007444171234594523
3.890451449942806, 0.00745594631816096
3.9810717055349722, 0.007203751844718461
4.073802778041127, 0.006709421381159261
4.168693834703354, 0.006012083190890572
4.265795188015927, 0.005164988671231656
4.36515832240166, 0.004230923191702384
4.466835921509632, 0.00327664073924609
4.570881896148751, 0.0023669427497479373
4.677351412871983, 0.0015590756971108769
4.786300923226384, 0.0008980426516459988
4.897788193684462, 0.00041324644970934895
5.011872336272722, 0.00011666995657875253
5.1286138399136485, 2.617302168545599e-6
5.248074602497725, 4.8930505360037e-5
5.370317963702527, 0.0002195623776205502
5.495408738576246, 0.00046839429871531915
5.623413251903491, 0.0007441744364810827
5.7543993733715695, 0.000996351311168295
5.88843655355589, 0.0011813508370532094
6.025595860743578, 0.0012685218218397507
6.165950018614822, 0.0012446790692914763
6.309573444801933, 0.00111609958614608
6.456542290346556, 0.0009071472724990754
6.606934480075959, 0.0006554286685367056
6.760829753919817, 0.00040429985386687033
6.918309709189364, 0.00019428733531281323
7.079457843841379, 5.525509943825788e-5
7.244359600749901, 8.992401369026998e-7
7.413102413009175, 2.658361647943977e-5
7.5857757502918375, 0.0001109102217965548
7.762471166286917, 0.00022086341634220728
7.943282347242816, 0.0003197876353731156
8.128305161640993, 0.00037671308350036074
8.31763771102671, 0.0003747257324811483
8.511380382023766, 0.00031567624026712936
8.709635899560805, 0.00021918026975643106
8.912509381337454, 0.00011574207162249188
9.120108393559097, 3.617674499620417e-5
9.33254300796991, 1.05364611919637e-6
9.549925860214358, 1.3878812205062348e-5
9.772372209558107, 6.041721648251607e-5
10.0, 0.00011460888499561639
